,Position X (m),Position Y (m),Position Z (m)
0,-3140000000.0,150000000000.0,0.0
1,-28558880000.0,150000000000.0,0.0
2,-53182328845.18335,145822491673.63565,-1844.2741318702883
3,-76395660196.37448,137778674530.43262,-5452.504855575557
4,-97671719927.32442,126241083649.23991,-10774.754244835547
5,-116566242313.40324,111625382392.95879,-17798.726329109082
6,-132711548154.58957,94377004759.1315,-26553.285112864825
7,-145809978322.01566,74961846896.73518,-37110.689292934425
8,-155627956597.00995,53860150428.32112,-49588.773529284095
9,-161991227568.95972,31562774969.577023,-64153.8468615629
10,-164781592101.38193,8569148534.409416,-81024.80227034181
11,-163935330372.70724,-14613730847.025078,-100478.41292247537
12,-159443428523.06198,-37471813995.46181,-122854.15396418565
13,-151353681127.0336,-59484597915.83376,-148552.51856261378
14,-139774701937.1494,-80126392498.75807,-178013.949490766
15,-124881812584.6847,-98868928053.88086,-211666.98779575882
16,-106924662015.319,-115186098524.25748,-249860.0236906421
17,-86236220006.59952,-128561785528.51695,-292840.64508693095
18,-63242440095.395096,-138501848042.14734,-340872.61876889656
19,-38471357135.90617,-144551419428.06726,-394500.3041664535
20,-12559648655.811596,-146318502350.48575,-454790.4405612317
21,13746209011.93705,-143504309780.9071,-523468.4177107587
22,39597940736.240974,-135939644087.54996,-603106.4053086091
23,64066854513.842834,-123624664616.01935,-697440.7599685094
24,86182272369.82353,-106766740048.19455,-811132.6930885185
25,104988375165.19893,-85808297405.20145,-946526.1697067708
26,119616431415.29036,-61434917563.36982,-1098914.3350544325
27,129363547423.275,-34555062473.164444,-1260456.8260628849
28,133763946218.50931,-6247905720.399097,-1425923.405198599
29,132637333388.11977,22316003206.74302,-1591246.8604603587
30,126103016659.27036,49968139236.73858,-1748978.2518815894
31,114557153286.82451,75631919358.17972,-1892370.3370428656
32,98620205933.87126,98393409690.39145,-2018607.1728168293
33,79068028230.30655,117543846918.43765,-2127009.0419368157
34,56760877958.6069,132593296371.36624,-2217995.0170470756
35,32581246840.16959,143261065974.6912,-2292694.8282521227
36,7386209970.84396,149451240237.9004,-2352730.850823636
37,-18024645866.164787,151221390344.614,-2400056.1634859685
38,-42927637450.72699,148750545898.43597,-2436827.1271892223
39,-66682961653.81976,142310168577.37433,-2465306.3507633237
40,-88735566527.92563,132239897994.88591,-2487793.0174036496
41,-108611756325.0993,118928492408.99669,-2506576.2713989425
42,-125913683056.31201,102799613073.16849,-2523906.739994458
43,-140313229058.71088,84301742999.88753,-2541981.4922254095
44,-151546269378.1953,63901427654.200455,-2562938.453031616
45,-159407934594.30222,42079053187.02593,-2588857.1173432986
46,-163749253331.96832,19326456087.022186,-2621762.6906823614
47,-164475407456.33295,-3854261568.527195,-2663627.0849511
48,-161545750398.64587,-26951281338.22425,-2716351.6515302346
49,-154975692003.1404,-49443535022.857025,-2781726.031710468
50,-144840515879.42053,-70801670221.69196,-2861400.586699484
51,-131281140844.59767,-90490173390.997,-2956912.5954615655
52,-114511735459.07793,-107971432319.12521,-3069764.5101030846
53,-94828906865.3023,-122712677256.739,-3201505.9859818504
54,-72621865143.1099,-134196899589.37619,-3353777.439614401
55,-48382463786.64531,-141938944025.96982,-3528279.6112366007
56,-22713302817.08039,-145507889745.44073,-3726476.5211455855
57,3668824725.3473473,-144556399284.65833,-3948780.32857759
58,29937813685.137276,-138856691184.3113,-4193785.645229006
59,55175768019.050865,-128340982752.5557,-4458542.8377506845
60,78407212113.20006,-113141656581.46259,-4739247.646246732
61,98652137220.28429,-93623488203.41953,-5031535.057961507
62,114995986046.10114,-70398181710.33752,-5330578.771581608
63,126668928817.3742,-44311879315.81238,-5631318.517366108
64,133121200944.46524,-16400599449.30909,-5928927.929642484
65,134078791123.8114,12183579305.357471,-6219447.55509227
66,129566719950.82262,40264042657.23665,-6499601.2442595335
67,119895242139.62274,66731785852.66229,-6763710.375309761
68,105614094284.24696,90621535246.74533,-7006021.165061258
69,87447123958.26758,111161281742.17633,-7224097.0863685515
70,66221748246.03978,127792848565.78944,-7417558.89407007
71,42804947734.81984,140167911136.37103,-7587221.202931876
72,18052555001.360786,148127363866.90176,-7734700.650025606
73,-7226194786.552113,151672173653.56912,-7862166.448009456
74,-32290184239.57573,150932176860.4505,-7972151.633064105
75,-56476939737.77603,146136997819.84546,-8067408.127924784
76,-79205428931.2358,137591238326.00226,-8150799.629035389
77,-99974021269.68057,125654638143.14452,-8225226.601364426
78,-118355865062.88701,110727034943.8353,-8293576.397569889
79,-133993293467.81552,93237518934.23576,-8358684.869622948
80,-146592343661.43182,73637023927.00436,-8423286.7539146
81,-155918086395.05487,52393594674.006775,-8489934.681163253
82,-161791204144.66876,29989633424.76338,-8560925.320478166
83,-164086095402.17847,6920502970.56617,-8638289.34230187
84,-162730690841.21307,-16306080986.422943,-8723910.82923955
85,-157708115971.14572,-39170415025.97125,-8819779.876701565
86,-149060298792.0714,-61141502009.09668,-8928278.859036986
87,-136893573580.08327,-81678718609.26677,-9052331.377455937
88,-121386243116.51247,-100235223426.27892,-9195225.042287678
89,-102797894436.807,-116264034730.32452,-9360114.298604526
90,-81479971179.56128,-129227882430.44774,-9549560.28305824
91,-57886636790.60927,-138614071694.53036,-9765378.366231948
92,-32584274665.04261,-143955579317.15814,-10008648.483532075
93,-6257068705.7672615,-144859266895.36392,-10279679.171685087
94,20294894090.7882,-141041207811.76132,-10577882.893904593
95,46169349099.59768,-132367460501.08276,-10901613.562498862
96,70391772488.0776,-118896110948.40573,-11248016.879890665
97,91964339589.40302,-100913407430.80305,-11612933.010162462
98,109933117175.34662,-78954353343.61581,-11990958.54141015
99,123467090521.00232,-53797862719.77859,-12375712.091171233
100,131936701376.27475,-26430064473.774284,-12760321.786193386
101,134976178350.84367,2023311055.9746323,-13138142.571553588
102,132515714443.26431,30385601213.40738,-13503670.823071733
103,124776790998.01254,57522574264.35976,-13852748.565898847
104,112233796328.2232,82423304749.81538,-14179690.253634123
105,95553040335.35222,104256393676.28839,-14478940.750616148
106,75523373387.17456,122397467635.44008,-14748079.638470028
107,52990871962.74707,136431096712.45847,-14986837.034207992
108,28805374258.558353,146134385146.1369,-15196263.143276764
109,3781768680.263191,151450346991.36493,-15378297.38983507
110,-21324646012.77783,152457837395.66357,-15535489.322954107
111,-45831320286.02115,149342639113.7627,-15670785.253894545
112,-69133287884.61444,142372240680.2806,-15787333.083918104
113,-90702591900.37938,131875300689.65413,-15888264.70640836
114,-110084644324.72269,118225824251.4565,-15976491.483869193
115,-126893234901.44943,101831565861.20752,-16054591.839680726
116,-140805368714.5344,83125965203.68977,-16124925.679245014
117,-151556707991.9354,62562887130.48815,-16189996.910688972
118,-158938116673.3126,40613481969.30454,-16252848.439941542
119,-162793631563.28253,17764549123.97572,-16317221.12704463
120,-163020082154.74023,-5482158700.557034,-16387377.949621346
121,-159568525041.7998,-28610230643.795845,-16467707.755729195
122,-152447623113.88385,-51089052196.28503,-16562369.796913609
123,-141729058690.79984,-72375048028.46326,-16675158.99299482
124,-127554993959.72406,-91914462065.79242,-16809528.44248385
125,-110147445269.50298,-109148589090.66223,-16968622.760242112
126,-89819173177.40347,-123522561733.03397,-17155251.232908748
127,-66985253365.92725,-134498960828.39497,-17371799.304369565
128,-42173836089.813736,-141577559259.77893,-17620080.26183241
129,-16033710798.542473,-144322267158.5742,-17901113.794848323
130,10664746112.442875,-142395592812.91364,-18214875.285411034
131,37039580675.08972,-135599420279.00142,-18560041.320415653
132,62122837933.01078,-123918504874.20473,-18933766.69948286
133,84905180280.12726,-107560050858.65413,-19331549.044294883
134,104399783998.32263,-86979968152.20894,-19747248.42781107
135,119720385910.98045,-62885504608.293526,-20173322.07275419
136,130162193790.31012,-36206610871.22686,-20601303.41762865
137,135270156738.12735,-8035127778.761799,-21022512.689491514
138,134879692350.12514,20460143183.16992,-21428968.554254986
139,129121263337.07425,48127077448.25779,-21814446.277031917
140,118389845883.47478,73915072592.94833,-22174746.805734288
141,103289005053.01181,96937606312.86795,-22504843.172767326
142,84563447045.599,116506643042.66084,-22799391.881695416
143,63032956091.01213,132140642173.24408,-23056076.15204098
144,39536520234.960846,143552714777.67923,-23275150.560953494
145,14890519953.731323,150626884026.30215,-23458371.351576764
146,-10139006305.920696,153389463479.32938,-23608257.530743476
147,-34852214033.95094,151980549510.22888,-23727644.497394737
148,-58622421119.92842,146628551322.56482,-23819650.372772526
149,-80897106010.97333,137629059463.28076,-23887911.32787337
150,-101195347890.33893,125328291951.85178,-23936681.622670494
151,-119103520887.52861,110110766270.09492,-23970704.621474653
152,-134270515282.33864,92390579690.14105,-23994991.07132004
153,-146403340243.54642,72605608260.36203,-24014572.33385228
154,-155263668998.77023,51213958933.8776,-24034270.705190703
155,-160665698053.3922,28692066471.012287,-24058578.034155004
156,-162475579804.32193,5533878786.962822,-24091676.64802159
157,-160612625970.46606,-17749400958.02851,-24137530.660898797
158,-155052442955.9071,-40629563084.68143,-24199973.63351517
159,-145832124556.28918,-62562242767.721436,-24282760.871026162
160,-133057563339.61017,-82989102514.87924,-24389548.36607851
161,-116912814536.53407,-101342240899.50244,-24523800.36018161
162,-97671209877.04173,-117051922899.4513,-24688663.670851156
163,-75707515925.8873,-129558918483.33417,-24886811.189638168
164,-51509807999.589294,-138332831665.98065,-25120247.440710187
165,-25688859763.400257,-142897650623.23926,-25390073.043110885
166,1018212823.1334915,-142865126687.31528,-25696214.962949794
167,27754339206.44063,-137975234091.98123,-26037144.706449788
168,53563702422.48622,-128140695223.35446,-26409626.345470037
169,77431792963.08641,-113489525500.5834,-26808556.576770384
170,98345531642.33492,-94396532477.92844,-27226971.24156661
171,115369617961.26741,-71493212300.2883,-27656285.104480635
172,127728976652.61989,-45647319077.74498,-28086796.72240572
173,134882230920.1004,-17909408987.074757,-28508440.222775996
174,136570571157.56444,10567481300.719963,-28911746.174454458
175,132831634680.7628,38620801735.6001,-29288982.16501497
176,123977308043.15184,65166532798.60917,-29635365.623623453
177,110543539937.12473,89267600622.35909,-29949507.67550675
178,93225473068.90347,110175133867.69241,-30230481.120656054
179,72811244836.89981,127342795545.73083,-30473695.503646698
180,50124102055.309006,140419811398.69104,-30673902.504606742
181,25977664827.100567,149230442950.3729,-30829144.198929854
182,1145139625.9490318,153747115879.12662,-30940779.078908965
183,-23659262094.43853,154062558883.96072,-31012341.471323345
184,-47789505760.07333,150364256493.98663,-31048692.891971964
185,-70670398280.7347,142912833257.81052,-31055483.000610825
186,-91796202706.92331,132024834673.97209,-31038727.699085172
187,-110727101937.5445,118059698675.60217,-31004454.184732303
188,-127084873670.10837,101410386658.08371,-30958487.927066427
189,-140548709146.4311,82497031757.82748,-30906385.20671298
190,-150851799480.2202,61762962874.45041,-30853437.25067693
191,-157779110098.87006,39672508450.91138,-30804708.276942715
192,-161166640380.01855,16710031851.38462,-30765074.463779297
193,-160902397488.84506,-6620324101.345886,-30739254.69992743
194,-156929275907.58347,-29794717451.441525,-30731844.07002743
195,-149250002347.2371,-52270105559.08812,-30747332.823992483
196,-137934252514.9953,-73485867423.8275,-30790077.70387771
197,-123127937530.53319,-92867421619.1843,-30864216.417196073
198,-105064448091.42671,-109832919342.4724,-30973536.59204345
199,-84077276772.69708,-123804306239.7913,-31121302.386910774
200,-60612853244.42777,-134224190130.76913,-31310034.018849883
201,-35241583889.41809,-140579884272.45566,-31541237.365640447
202,-8664017653.309875,-142435500583.774,-31815090.266304225
203,18292049505.99366,-139471773399.90598,-32130108.288794875
204,44688430689.6964,-131531180319.97179,-32482835.112055693
205,69511856691.89165,-118662945397.19379,-32867636.99662908
206,91729878526.22453,-101159300500.52942,-33276767.03511466
207,110364801276.05382,-79572354663.386,-33700971.48201984
208,124576789631.26137,-54701932347.373795,-34130935.317108124
209,133741725559.22987,-27549978478.951477,-34559831.88207814
210,137507712564.93268,754284752.9976387,-34986260.01727814
211,135818230260.79163,29045648336.81998,-35410377.97106239
212,128898699538.84676,56213320703.410934,-35819540.554510415
213,117212740033.04044,81274716077.98872,-36194459.02407333
214,101400633513.68121,103423391426.48454,-36522545.06842676
215,82213545783.95923,122049816719.57495,-36797948.53431018
216,60454012780.968216,136739619893.7469,-37016670.42768757
217,36928518879.892624,147256669053.2501,-37172172.34523287
218,12413744526.917324,153518284697.83746,-37257383.716782354
219,-12364765657.436863,155568266180.68954,-37270814.75363143
220,-36744080576.0889,153551430614.55383,-37217944.68589775
221,-60128315039.71297,147691621663.94955,-37108351.05608962
222,-81988514688.15677,138273893285.84845,-36952872.23116301
223,-101859971717.91609,125630817743.7211,-36762145.40861995
224,-119338421814.26204,110132481288.02878,-36546125.11672758
225,-134076133973.5271,92179579083.49791,-36314065.177165814
226,-145778581089.8225,72198996620.48204,-36074657.61170058
227,-154202161191.65134,50641296947.446236,-35836186.79875661
228,-159153304844.19003,27979576069.107834,-35606651.07711048
229,-160489228974.95444,4709174903.441288,-35393847.59327614
230,-158120557508.77505,-18652272002.77987,-35205430.03713416
231,-152016000809.3421,-41565024774.16144,-35048936.27399921
232,-142209242348.1301,-63468344789.64402,-34931758.7500903
233,-128808089592.82272,-83783364561.01344,-34861040.33475144
234,-112005762669.68523,-101918778390.80453,-34843498.92038041
235,-92093861739.40938,-117280643802.53096,-34885178.92121158
236,-69476008635.08182,-129287768856.405,-34991116.41371957
237,-44680349317.49538,-137394169761.23569,-35164921.39386339
238,-18368039210.47982,-141119709687.5256,-35408377.07132446
239,8666338872.092869,-140088998726.32187,-35721193.27466752
240,35507366085.48692,-134076689553.09161,-36100777.24262233
241,61149257245.03305,-123054409797.06827,-36541998.88316818
242,84547181727.1748,-107231237635.4435,-37037604.26160134
243,104688120201.98016,-87077136561.25076,-37580124.20415869
244,120673739556.71036,-63318983552.873314,-38164883.895139724
245,131801723924.93541,-36903213661.37336,-38784281.76399457
246,137629271032.27927,-8927244102.98568,-39407544.345451646
247,138005322677.31927,19449156191.98985,-39995185.65254735
248,133066154563.11427,47095662557.948,-40518856.481042944
249,123198734027.04477,72989874711.47005,-40960906.29531406
250,108983296145.19116,96271709038.06989,-41311475.222158745
251,91128684620.63678,116270722570.04715,-41566533.01372521
252,70411696174.67865,132509849573.32672,-41726246.57705534
253,47627215354.16208,144692412064.05823,-41793327.3933295
254,23551556616.815063,152679722800.51617,-41771422.41700253
255,-1081651689.6710968,156465274148.0052,-41663946.45284793
256,-25595302028.09199,156149576728.94748,-41473954.157328084
257,-49375080193.45877,151917932466.43503,-41205730.84348555
258,-71870694076.78452,144022104485.90857,-40867549.37409174
259,-92594104811.16208,132766004993.70435,-40472555.655801065
260,-111116300068.25677,118495069924.25014,-40036277.55727939
261,-127063704993.97404,101588799144.73424,-39573853.374622
262,-140114980330.47766,82455887445.80983,-39099124.912754744
263,-149998723910.8012,61531382417.391594,-38624860.27592574
264,-156492448900.73468,39275341282.1857,-38163156.07294643
265,-159423130626.04065,16172485874.237228,-37725713.60336939
266,-158669570980.14005,-7267649174.442955,-37323984.67751897
267,-154166803162.15353,-30510628536.44048,-36969224.94183027
268,-145912724331.6016,-52997744073.95583,-36672449.31322121
269,-133977068342.66484,-74148174427.77786,-36444268.61704592
270,-118512672404.7549,-93363707328.61111,-36294642.27515655
271,-99768693894.94388,-110037302984.11478,-36232636.05238413
272,-78104929489.98764,-123566997891.05751,-36266120.43628219
273,-54005617914.996315,-133376727768.79037,-36401255.387647614
274,-28090058729.63243,-138945389745.776,-36641815.9533688
275,-1116162714.997303,-139844592222.74673,-36988536.38740899
276,26027997776.506546,-135783772266.4829,-37438547.15903504
277,52349803406.938416,-126658586587.76382,-37984486.63408699
278,76798581984.36623,-112595078065.15347,-38611993.17304876
279,98332864812.46712,-93979227557.66566,-39297648.24161078
280,116002263776.52737,-71460961031.6764,-40012582.83658311
281,129031409471.22108,-45925204644.229385,-40726706.84638888
282,136889682847.18454,-18430194264.660915,-41410729.176342055
283,139332146249.02872,9877544754.14125,-42037841.46920067
284,136404303957.81866,37855462355.45091,-42585387.690722406
285,128413051282.64682,64447467133.657974,-43036102.36179244
286,115874027010.2852,88744394171.02191,-43378618.18972268
287,99448727218.34749,110017829815.57643,-43607250.971171774
288,79883219086.57422,127729526417.82219,-43721249.166502446
289,57956166279.57708,141522648658.51254,-43723802.409754544
290,34439445793.52487,151202090500.30875,-43621047.49465594
291,10071304632.31718,156710095429.4559,-43421193.613139994
292,-14459861300.228,158101595114.33243,-43133795.749952026
293,-38523691486.305115,155521885229.35098,-42769160.90945473
294,-61550523164.45205,149187866154.81964,-42337880.19147107
295,-83030636031.75377,139373161217.06052,-41850588.22047242
296,-102511689727.80093,126396905865.79771,-41318320.754637204
297,-119595516486.93152,110615755019.99017,-40753653.4224517
298,-133935079194.04118,92418565802.94635,-40170972.49518244
299,-145232170385.32706,72223206714.74016,-39584879.29058471
300,-153236276592.9393,50474987230.44766,-39009149.537661776
301,-157744928529.39352,27646226682.883224,-38456790.17718866
302,-158605809520.13647,4236470591.919014,-37940282.46849258
303,-155720873703.7393,-19227180384.16563,-37471790.00355801
304,-149052697976.99814,-42190258198.082985,-37063311.708154745
305,-138633230914.52768,-64072416608.7222,-36726672.230112456
306,-124574967649.16798,-84271221762.44804,-36473323.21905253
307,-107084315762.50977,-102169502168.31761,-36314011.30838187
308,-86476455550.84004,-117147768406.90173,-36258313.28856515
309,-63190271063.10051,-128603355329.6985,-36313931.24540898
310,-37800904132.76787,-135977787844.03522,-36485643.748806074
311,-11026238893.21627,-138793154788.68185,-36774166.846373096
312,16277550460.205746,-136696690741.2136,-37175336.49619791
313,43136768009.98691,-129510139011.49045,-37679555.70725321
314,68501642386.73024,-117277047213.89655,-38271442.464771345
315,91309454214.00984,-100297931506.53177,-38929929.093303956
316,110564607201.98636,-79142017413.70386,-39629070.901006386
317,125424256176.06088,-54626875385.004814,-40339605.122776076
318,135273506956.61427,-27764217227.406246,-41031102.33458736
319,139774648348.7631,320619520.74946594,-41674383.1709151
320,138881136118.11963,28480431391.13268,-42243737.49362012
321,132816602290.19778,55631857385.2944,-42718569.92545512
322,122027670285.45476,80821498570.96417,-43084249.98729516
323,107123528696.63635,103266171347.76949,-43332158.93904021
324,88814559119.20796,122368177503.9634,-43459139.068346016
325,67858603687.9751,137711085867.07352,-43466623.35593727
326,45019032113.343636,149043083263.76703,-43359673.82162311
