,Position X (m),Position Y (m),Position Z (m)
0,-46800000000.0,-44400000000.0,2840000000.0
1,-24361920000.0,-77292480000.0,-1644160000.0
2,2611672152.040642,-95795656737.96509,-5822228835.908001
3,29292783269.102867,-103566197983.7815,-9347986486.131195
4,53670673766.86812,-103193176090.53752,-12138685354.27446
5,74721715439.99228,-96423404354.10593,-14176910710.359978
6,91772915217.36807,-84492027714.98557,-15456209371.123857
7,104242603882.44737,-68342624547.94772,-15963860615.401133
8,111504219587.42677,-48778834058.653755,-15673900998.136019
9,112782681333.91913,-26597816599.170437,-14542861632.433092
10,107040380438.96242,-2761379685.673931,-12506478135.847588
11,92826556550.01578,21293056452.49238,-9480233531.696941
12,68113830368.0946,42938031680.738594,-5381651311.420446
13,30550175100.61537,56476797288.600006,-267026526.1806345
14,-18448176320.803032,48865839240.51529,4947339502.738406
15,-54782758052.58891,7723661717.390984,6767254272.761654
16,-59763010044.93097,-37843709240.03838,4714643619.307022
17,-48113495155.94176,-72886178197.86316,1350322179.024507
18,-29302326412.00842,-97085135201.5943,-2214992132.2593966
19,-7705013449.592377,-112060172783.46849,-5569874722.715719
20,14431036812.668194,-119222360965.59605,-8536397032.840595
21,35748149625.97699,-119608817964.16626,-11017716795.449566
22,55264746090.59088,-113967568363.74915,-12943712191.249025
23,72125959551.23746,-102848584444.07944,-14247459033.65933
24,85446673680.85147,-86680025511.86475,-14851517517.852432
25,94169364447.63727,-65846688322.21258,-14656057288.817753
26,96880803321.0769,-40810292441.74574,-13524657018.580475
27,91518094991.29877,-12373911733.580082,-11265654029.87662
28,74876084370.01942,17584194507.692505,-7617632186.36207
29,42141755521.66388,43753331831.91439,-2331637791.4377995
30,-9175455656.719002,50589833740.6995,3983220678.749585
31,-53838672828.69725,20925219422.503323,7425430620.556568
32,-71542532625.55357,-19226970397.958294,7152736373.310049
33,-72058869895.47917,-54774664680.3174,5162810810.557526
34,-62986459852.882614,-83046661206.22943,2486316849.129355
35,-48397996321.2953,-104058587607.58528,-407810814.9927306
36,-30628473761.925556,-118245562413.55875,-3275294645.129854
37,-11188542151.252186,-126004359295.77206,-5964743828.600886
38,8802607461.005363,-127607690434.40973,-8362772295.773273
39,28383244504.67974,-123197521999.27284,-10366618671.960487
40,46587352982.75806,-112794228364.47922,-11866014917.046555
41,62285258108.28852,-96312705677.88644,-12725730099.887575
42,73960054745.90446,-73603408034.0892,-12762145608.158112
43,79308617422.28236,-44594475551.65375,-11705424164.765217
44,74440519880.82312,-9841434419.649445,-9138798906.146187
45,52457117641.363434,27160652411.08206,-4468001849.189202
46,5416525879.25753,51117875603.83888,2341117726.696677
47,-45448737609.69786,37962873460.98233,7451130319.148134
48,-75227839232.34459,7212228237.245308,9113851628.403614
49,-88168234797.97806,-25169119521.764988,8740001427.491013
50,-89947660984.34753,-54381669786.3087,7261363239.157788
51,-84108246134.85086,-79004457274.41704,5168509278.775107
52,-72855361989.1303,-98559079506.58937,2743445718.2178316
53,-57674884822.61275,-112819122104.41394,170646779.67151308
54,-39673697724.74571,-121584723609.85738,-2410663892.114093
55,-19782016496.63794,-124590592234.93263,-4877867795.855417
56,1096400768.1916924,-121451553154.17497,-7104482561.636423
57,21926178102.51478,-111613458004.23181,-8939095434.845867
58,41301404526.98877,-94302362619.40031,-10174872215.00724
59,56977529363.42823,-68507962547.58379,-10494602348.527866
60,64801058648.0793,-33248371309.524635,-9362496910.135193
61,56277881577.479195,10399759351.191048,-5860751897.008468
62,18232454015.28395,48501161334.428505,726863034.8249464
63,-32593670513.08515,52008224362.932236,6793641261.629063
64,-69751611462.83804,33834005304.17882,10033144356.507097
65,-92545641620.17812,8693242967.00002,11213799781.537548
66,-104232768822.88275,-17503922568.666588,11052217978.769518
67,-107350144053.37259,-42277637648.65427,9984119536.41286
68,-103636696443.63806,-64378122619.56967,8282194517.483425
69,-94313716709.57855,-83012808307.18988,6133047040.484563
70,-80293371270.1934,-97535048847.82341,3679203843.7965393
71,-62322335789.97046,-107286323226.09692,1044785488.776228
72,-41101606884.243034,-111483251997.55806,-1644155271.803835
73,-17429213257.148907,-109098694155.06494,-4236311845.2277703
74,7553056874.25428,-98701330845.62857,-6517408063.234279
75,31803729355.528805,-78239095834.50453,-8133573439.1066475
76,50902382127.54517,-44967464736.22743,-8416554671.090274
77,54096614896.5486,2416707154.230667,-6050757028.881455
78,23634206602.54624,48180027437.47174,104302661.50904942
79,-21741632332.70939,62861547185.52153,6187099141.140025
80,-59839320239.93435,56867211382.843506,10237730661.213005
81,-87717038197.83696,41204939937.179886,12551727410.538748
82,-106367091589.37137,21212744542.37235,13551441837.304857
83,-117016397305.59233,-381104914.7482567,13535768126.259466
84,-120626421761.86433,-21962843425.705223,12708698925.42352
85,-117896149769.96254,-42404471765.09625,11215933507.992903
86,-109326919200.61739,-60764180502.88478,9169636291.639004
87,-95285183041.8038,-76106192625.36346,6666068499.726143
88,-76067215275.39836,-87347465194.68948,3801895003.807113
89,-51996336394.06726,-93068775351.59523,696296840.9344702
90,-23637849807.469257,-91214772964.28584,-2466931407.5754266
91,7591845162.839104,-78572046462.6955,-5339002440.69738
92,37408452527.76622,-50089595458.05661,-7134264994.975698
93,52212433917.043884,-1249842153.3833618,-6023181399.183679
94,30527420888.572243,48335613135.93438,-659488260.9314833
95,-7158007708.324402,71938729010.17249,5051217202.64362
96,-42830407050.11796,76954618442.00133,9457416651.526478
97,-72400472641.73318,71147041769.62978,12535227815.70237
98,-95320321770.58014,58847382973.58746,14471316782.347065
99,-111754293836.66908,42559199912.6306,15429070266.077957
100,-121941427151.99443,23896000033.999245,15529146669.10661
101,-126044650931.08054,4037693013.2151527,14858410345.127022
102,-124114738006.98625,-16022324750.83942,13480027103.102308
103,-116081484295.09981,-35309082903.91677,11442143520.250265
104,-101752897619.37491,-52704499843.35733,8787112485.38642
105,-80831542421.28282,-66724312654.28555,5566247854.209411
106,-53007637407.891846,-75119352342.71416,1873567433.034196
107,-18389209450.01146,-74057274805.64632,-2057375398.1856852
108,20512620095.765686,-56536388107.03546,-5532949878.904468
109,50351459923.88084,-13055247532.70314,-6465292298.05912
110,44342433654.59845,39734763827.37927,-2724974419.3381567
111,17446119942.175816,73332015276.02306,2317781089.6081533
112,-13276918047.490772,89928479260.03714,6821221114.807665
113,-42163541154.47751,94858431870.65839,10439743267.238014
114,-67348231375.154396,91621788738.95123,13160029100.628399
115,-88102828769.41226,82428711805.1697,15025561972.236889
116,-104043881615.93579,68769973199.47183,16078093986.712809
117,-114861509230.22217,51746732190.38128,16345398086.825186
118,-120203748385.26569,32268696427.717216,15839361374.08419
119,-119606481012.64838,11199994104.372547,14556316893.782455
120,-112429130762.66754,-10490135284.050941,12478316421.589798
121,-97780435912.10583,-31502174026.842842,9577555300.824816
122,-74450293640.74043,-49763975748.54511,5834032968.803911
123,-41027673096.81408,-61401075178.88317,1308575900.8804998
124,2570008939.114006,-58250341512.299034,-3537253596.31835
125,45431898602.34824,-25879553047.184456,-6611947192.485637
126,56395350468.007,24990107915.160965,-4939393887.95059
127,43123967617.53251,64818788910.32046,-1108353108.5639482
128,20871234822.348957,90736302392.19414,2955948827.5547614
129,-3803565210.6955414,105472926376.62999,6654416148.908165
130,-28061989503.49365,111408979064.307,9796980978.511538
131,-50450000311.77114,110215970969.72003,12312371367.05007
132,-70051017880.8316,103070240000.5174,14162738906.884756
133,-86140146937.30531,90839587792.85117,15314542024.323545
134,-98009245723.21121,74215300558.09871,15725985318.987974
135,-104844335440.75375,53820321795.73888,15339120488.314245
136,-105599193863.025,30333446316.3138,14072431672.362513
137,-98822337774.03062,4698961726.856327,11812975035.316502
138,-82398463937.67888,-21402578632.68091,8413720350.383894
139,-53284317256.45328,-44283408467.670044,3736427392.943618
140,-8607963724.658989,-54596095422.83669,-2010764482.876832
141,41897105519.35379,-33156631430.728218,-6597934013.151731
142,64910389831.362686,10702431418.722733,-6719921628.607648
143,64737943568.22489,50604520564.74574,-4395638660.418835
144,52859369945.5785,81123916232.21594,-1262449497.6506085
145,35247585814.54428,102580638350.7699,2009094149.2727604
146,14987557750.794891,115983239027.4878,5121308752.731808
147,-6107645882.901703,122197789581.6356,7914993866.290836
148,-26794644550.254635,121864625074.95837,10283635187.181557
149,-46065414279.56926,115434417224.41838,12136946168.9748
150,-62950743470.485435,103216859073.94012,13381015888.758577
151,-76359520670.94885,85432996086.14215,13902779095.023628
152,-84886968966.39938,62293801044.41342,13552417673.53556
153,-86511845806.97502,34176858525.014965,12118626590.898685
154,-78052552982.79276,2140773868.3696556,9295573299.358475
155,-54316509792.10061,-30319700538.822372,4686094307.44504
156,-9214180810.179565,-51234228523.55945,-1721237442.470065
157,43421368090.86942,-36778380447.04634,-6955913817.658448
158,72515375929.22232,-1599853962.447609,-8279261852.915494
159,82243764646.70596,34000386390.133064,-7337932915.993005
160,80141275794.4773,64599157390.81411,-5321229415.764462
161,70657463562.02826,89111556855.93994,-2805784667.527531
162,56401011854.99028,107447626957.6475,-97699971.36258888
163,39053992825.323204,119701115806.9367,2614453227.0173326
164,19834806174.565876,125935966514.84734,5193855718.922415
165,-248836688.13093567,126122544193.80823,7522567099.9526825
166,-20229201420.26045,120112541610.05101,9480383118.806349
167,-39017372020.17369,107623766852.11116,10925367387.22476
168,-55183120495.26626,88236638152.22754,11668259917.156847
169,-66559639660.1501,61449451401.38661,11430091290.626923
170,-69414154941.70653,27019383601.930786,9766281212.151531
171,-56722320441.8929,-13289698900.511726,5968871477.982458
172,-17729916962.004402,-47625071326.815994,-515813537.8540697
173,35497492419.81208,-47539236249.20721,-6648199984.591507
174,72200602425.80714,-23971365307.646404,-9514432350.260046
175,92266966999.86757,5294650886.553944,-10131778510.968313
176,100438408456.801,33872248161.890144,-9417086090.675728
177,100048420689.31276,59509084434.95145,-7885251776.84374
178,93246822738.43488,81257016153.61102,-5839072217.49192
179,81491171807.38596,98593595985.36914,-3476835320.7871165
180,65851881341.55347,111111382717.87593,-945654202.0985565
181,47199617054.76152,118380903055.86037,1628918115.4130526
182,26344054002.217155,119866690082.07916,4122327944.604113
183,4175838671.032276,114850467943.98792,6390203996.136406
184,-18121977757.548122,102338060969.3653,8238478970.387424
185,-38654034909.77388,80952264189.60316,9368718096.680866
186,-53812946351.85837,48949051104.482635,9263740604.966022
187,-55739445819.43276,5432933467.292015,6965103637.198202
188,-29179993792.82768,-40662730256.62481,1231171387.1683683
189,20112236622.560658,-57247422034.04529,-5414386823.900615
190,61386489994.69713,-47961298636.97701,-9635565716.791662
191,89741961218.62964,-28138145180.979176,-11755860350.464798
192,107193862340.1815,-4776973152.138187,-12413399998.40878
193,115838695689.02545,19004950590.92773,-12030694425.325697
194,117205698001.31593,41583291218.61986,-10878286850.167946
195,112380420795.73555,61932359357.01723,-9140843457.745827
196,102156759948.14705,79253859911.40341,-6956207632.940329
197,87151169115.21744,92787919915.45006,-4439526537.13274
198,67896860016.23074,101681582938.86214,-1701742902.7735376
199,44950850784.55653,104854698257.64981,1130257759.1602411
200,19075078643.34916,100814710000.81624,3882041403.38448
201,-8351649114.596458,87365932069.4934,6267302254.770862
202,-34192016231.366787,61229119842.21185,7734122077.008427
203,-50082825924.00266,18603621804.475555,7097608888.86693
204,-36532791625.737885,-34228369679.2239,2473766838.819872
205,4162379968.064621,-63057934933.73595,-3889782602.3202524
206,44256435097.114784,-67403578505.04262,-8764855651.607332
207,76297540143.72107,-58636994228.18104,-11951068940.962101
208,99859428361.18608,-43074447083.51677,-13765339974.012407
209,115634405366.80325,-24028372725.530197,-14479490527.47706
210,124321206040.10568,-3448155066.7105255,-14287068962.471592
211,126451179666.87666,17341144779.475945,-13326102192.893763
212,122388170028.48036,37284551176.38633,-11699581068.251953
213,112357640872.25305,55390961622.27568,-9490787289.469725
214,96482279405.82237,70568527849.64168,-6777279402.735806
215,74838003974.327,81431713418.1918,-3648541773.047995
216,47588790733.42502,85998565624.08658,-238662109.2852211
217,15400634920.823597,81136294342.3337,3193614626.7984796
218,-19078299642.241055,61592989398.282196,6037862920.10228
219,-45701322065.73143,20164536763.095367,6705299553.8784275
220,-39622780315.80814,-34474855961.11454,2833203619.496246
221,-8427666747.825573,-68407635323.47121,-2734358274.2911897
222,26045745816.779644,-82363046766.61443,-7520372586.227079
223,56967674329.095856,-83585006772.50473,-11157462867.75394
224,82635414627.11047,-76621714584.44987,-13713237061.541014
225,102651593092.43683,-64180833307.29746,-15299041932.595768
226,116930564295.43561,-48010046819.47472,-16006456580.949005
227,125414815586.65582,-29365074933.799023,-15901745677.166273
228,127979156925.12778,-9268239640.999496,-15029817130.571196
229,124386718921.71948,11318342959.42249,-13419200304.379374
230,114257333981.64636,31332225841.957302,-11087718126.65097
231,97041717294.51855,49394263253.03908,-8052069448.820474
232,72033629799.71574,63419818574.673706,-4351802928.208825
233,38605519508.996124,69789839462.43411,-124624526.5650177
234,-2344150239.1248016,61533359029.25303,4121114416.103888
235,-40928042407.79145,26940251061.683678,6564943765.172295
236,-47842482852.230225,-26462321394.18583,4263286743.9135013
237,-28811438745.53933,-66000101822.96835,-226615523.7918706
238,-1975669968.6546097,-89233143048.03745,-4670333961.822666
239,25554105874.75034,-100346841463.75024,-8490532763.699831
240,51111109871.369606,-102532758355.69603,-11564844954.11069
241,73505840835.10434,-97893572181.29257,-13878111634.175982
242,92062768460.62764,-87861466455.28207,-15435540176.804914
243,106268379573.70844,-73482031800.72711,-16238581142.665672
244,115612905602.68347,-55592883131.941376,-16277034619.311512
245,119492482463.17268,-34955255043.74664,-15525396810.149536
246,117118986041.83545,-12387112302.989674,-13940194302.695301
247,107408049531.5672,11039954608.08265,-11458565079.874687
248,88831302718.78505,33607774238.701824,-8004067713.49399
249,59317492373.064545,51999966036.78508,-3530456485.458127
250,17066213333.24376,58780239204.84762,1738005122.2064714
251,-31660710608.859047,38236173020.11664,6166355603.794087
252,-54946854380.59021,-9324579183.830223,6090792392.563932
253,-50876789151.045265,-52029963288.94354,3141601496.372118
254,-34541426971.87576,-82745165539.83336,-526013782.5118818
255,-13372720787.768715,-102793521286.09644,-4131615332.478844
256,9224219052.825878,-114022625690.55211,-7389726082.049844
257,31450471191.35014,-117843271119.00098,-10174777587.555704
258,52172451664.0193,-115266563459.93106,-12414735438.721016
259,70525336843.68477,-107025056175.69371,-14052388639.456665
260,85711034379.12903,-93671396705.94098,-15027774638.897734
261,96859964619.72559,-75659808225.95154,-15266968197.904264
262,102893074092.08424,-53435962503.62105,-14671384517.08952
263,102332068553.5019,-27585708218.366905,-13104528067.175726
264,92990515147.92552,824796131.2935371,-10376117199.376259
265,71490432295.09705,29290230691.16201,-6242016656.888155
266,33187586213.507202,50814918063.90636,-572848726.5851002
267,-20372074685.20954,46777934800.35731,5371463942.757931
268,-56737228129.487114,10140513985.234306,7438752873.9048395
269,-67339094770.50458,-30270929970.297585,6314968742.914162
270,-63086083399.3611,-64073482206.46243,3861504351.2278886
271,-50745346019.355934,-89951661682.28142,935372676.2405581
272,-33911542406.625374,-108292530607.86313,-2071255264.9462743
273,-14685652482.156662,-119657753841.37578,-4948647663.6004925
274,5531512387.265636,-124498890352.84323,-7561442475.188912
275,25659095927.497112,-123119876942.17334,-9802609759.408127
276,44720963633.563324,-115688206152.88167,-11569272716.962622
277,61683417294.225464,-102255817479.48276,-12745200787.794325
278,75277247152.583,-82792418823.04965,-13182220264.641891
279,83727468057.73474,-57267911352.56135,-12673833350.14738
280,84253999229.14246,-25919891454.146606,-10913166813.203732
281,72103400176.7775,9749072016.437538,-7439210963.139839
282,39503354833.504845,42953951853.29977,-1749586788.0561085
283,-14720619105.56697,51057135731.72263,4976172669.705481
284,-56657389295.48509,26386164876.2721,8380783888.534458
285,-77667898919.08984,-6866320130.460583,8873078738.54507
286,-84256830675.52003,-38622860200.00246,7788754070.819569
287,-81329400010.51527,-66035214611.91191,5859071150.267355
288,-71872594237.90468,-88263190584.71828,3477381101.1590095
289,-57800221027.59732,-105014429365.5237,881422477.8249731
290,-40459306774.593216,-116115402961.22208,-1763346137.4192634
291,-20912883930.218906,-121362523282.06041,-4322478175.049416
292,-123618962.50469208,-120454023307.46135,-6667400939.276345
293,20885564329.87865,-112942591723.91408,-8654136548.216534
294,40826026174.87735,-98191399968.54741,-10097048250.906116
295,57783027364.14824,-75350145768.83923,-10725879212.927519
296,68446207481.84414,-43487443170.652084,-10104680191.66691
297,66345389027.67014,-2658953244.2115784,-7490361019.446386
298,39457661589.2079,39944161728.18845,-1913839026.4354143
299,-12298812673.220078,55798258568.27799,4977371306.585675
300,-55126593771.46951,42141813409.03188,9124372548.226933
301,-82342884904.10002,17855906072.570545,10853122628.165056
302,-97214260785.01724,-8713320223.67812,11025243383.648264
303,-102741679493.16364,-34303689141.57483,10176389135.67579
304,-100977518270.98254,-57421541960.912254,8630066131.1845
305,-93330221889.03937,-77215501814.57417,6598196000.996599
306,-80820490210.12587,-93057966792.54395,4234976934.711896
307,-64249974874.658,-104356180516.48065,1667317464.7406158
308,-44325882369.487114,-110437199052.69211,-984107937.371727
309,-21784993723.991344,-110444317008.31215,-3584535921.172061
310,2424716698.347843,-103208378560.72377,-5956688522.8442
311,26779418889.213203,-87067686705.73375,-7828247807.952091
312,48279133468.9956,-59683083463.83162,-8717264305.742996
313,59967400148.991714,-18564215155.142532,-7676622051.087981
314,46027835945.600395,32043398328.693527,-3128531657.70798
315,1786967585.045929,60980127273.312294,3655845662.4111977
316,-41295829878.45572,61526406249.38288,8657246777.863888
317,-73817075373.80957,48286993774.9234,11639256345.340115
318,-96201442025.1978,29054989959.526802,13103632060.847343
319,-109930257033.10667,7506882636.52116,13435053179.988195
320,-116230629284.31741,-14386305112.628777,12889593429.467913
321,-116000020620.12288,-35379021683.64914,11643143421.79613
322,-109884290598.75482,-54530424405.25876,9824867790.140598
323,-98355321120.85416,-70988309057.58405,7538714330.6872425
324,-81778071317.90576,-83841657903.30739,4879716325.292677
325,-60485388335.636055,-91974388456.62482,1951119699.910832
326,-34904533332.631134,-93863571090.38109,-1109297937.2306142
327,-5857331585.867718,-87243514135.56787,-4075087608.221769
328,24558298514.90317,-68541682281.24785,-6496672692.701639
329,50022634830.53628,-32510172516.120605,-7340166849.69857
330,52223999265.37715,21278389852.669983,-4468607134.295507
